i	j	b_idx	d[nm]	k[kJ/mol/nm^2]
7401	7402	0	0.3800	8033.0000
7402	7403	1	0.3800	8033.0000
7403	7404	2	0.3800	8033.0000
7404	7405	3	0.3800	8033.0000
7405	7406	4	0.3800	8033.0000
7406	7407	5	0.3800	8033.0000
7407	7408	6	0.3800	8033.0000
7408	7409	7	0.3800	8033.0000
7409	7410	8	0.3800	8033.0000
7411	7412	9	0.3800	8033.0000
7412	7413	10	0.3800	8033.0000
7413	7414	11	0.3800	8033.0000
7414	7415	12	0.3800	8033.0000
7415	7416	13	0.3800	8033.0000
7416	7417	14	0.3800	8033.0000
7417	7418	15	0.3800	8033.0000
7418	7419	16	0.3800	8033.0000
7419	7420	17	0.3800	8033.0000
7421	7422	18	0.3800	8033.0000
7422	7423	19	0.3800	8033.0000
7423	7424	20	0.3800	8033.0000
7424	7425	21	0.3800	8033.0000
7425	7426	22	0.3800	8033.0000
7426	7427	23	0.3800	8033.0000
7427	7428	24	0.3800	8033.0000
7428	7429	25	0.3800	8033.0000
7429	7430	26	0.3800	8033.0000
7431	7432	27	0.3800	8033.0000
7432	7433	28	0.3800	8033.0000
7433	7434	29	0.3800	8033.0000
7434	7435	30	0.3800	8033.0000
7435	7436	31	0.3800	8033.0000
7436	7437	32	0.3800	8033.0000
7437	7438	33	0.3800	8033.0000
7438	7439	34	0.3800	8033.0000
7439	7440	35	0.3800	8033.0000
7441	7442	36	0.3800	8033.0000
7442	7443	37	0.3800	8033.0000
7443	7444	38	0.3800	8033.0000
7444	7445	39	0.3800	8033.0000
7445	7446	40	0.3800	8033.0000
7446	7447	41	0.3800	8033.0000
7447	7448	42	0.3800	8033.0000
7448	7449	43	0.3800	8033.0000
7449	7450	44	0.3800	8033.0000
7451	7452	45	0.3800	8033.0000
7452	7453	46	0.3800	8033.0000
7453	7454	47	0.3800	8033.0000
7454	7455	48	0.3800	8033.0000
7455	7456	49	0.3800	8033.0000
7456	7457	50	0.3800	8033.0000
7457	7458	51	0.3800	8033.0000
7458	7459	52	0.3800	8033.0000
7459	7460	53	0.3800	8033.0000
7461	7462	54	0.3800	8033.0000
7462	7463	55	0.3800	8033.0000
7463	7464	56	0.3800	8033.0000
7464	7465	57	0.3800	8033.0000
7465	7466	58	0.3800	8033.0000
7466	7467	59	0.3800	8033.0000
7467	7468	60	0.3800	8033.0000
7468	7469	61	0.3800	8033.0000
7469	7470	62	0.3800	8033.0000
7471	7472	63	0.3800	8033.0000
7472	7473	64	0.3800	8033.0000
7473	7474	65	0.3800	8033.0000
7474	7475	66	0.3800	8033.0000
7475	7476	67	0.3800	8033.0000
7476	7477	68	0.3800	8033.0000
7477	7478	69	0.3800	8033.0000
7478	7479	70	0.3800	8033.0000
7479	7480	71	0.3800	8033.0000
7481	7482	72	0.3800	8033.0000
7482	7483	73	0.3800	8033.0000
7483	7484	74	0.3800	8033.0000
7484	7485	75	0.3800	8033.0000
7485	7486	76	0.3800	8033.0000
7486	7487	77	0.3800	8033.0000
7487	7488	78	0.3800	8033.0000
7488	7489	79	0.3800	8033.0000
7489	7490	80	0.3800	8033.0000
7491	7492	81	0.3800	8033.0000
7492	7493	82	0.3800	8033.0000
7493	7494	83	0.3800	8033.0000
7494	7495	84	0.3800	8033.0000
7495	7496	85	0.3800	8033.0000
7496	7497	86	0.3800	8033.0000
7497	7498	87	0.3800	8033.0000
7498	7499	88	0.3800	8033.0000
7499	7500	89	0.3800	8033.0000
7501	7502	90	0.3800	8033.0000
7502	7503	91	0.3800	8033.0000
7503	7504	92	0.3800	8033.0000
7504	7505	93	0.3800	8033.0000
7505	7506	94	0.3800	8033.0000
7506	7507	95	0.3800	8033.0000
7507	7508	96	0.3800	8033.0000
7508	7509	97	0.3800	8033.0000
7509	7510	98	0.3800	8033.0000
7511	7512	99	0.3800	8033.0000
7512	7513	100	0.3800	8033.0000
7513	7514	101	0.3800	8033.0000
7514	7515	102	0.3800	8033.0000
7515	7516	103	0.3800	8033.0000
7516	7517	104	0.3800	8033.0000
7517	7518	105	0.3800	8033.0000
7518	7519	106	0.3800	8033.0000
7519	7520	107	0.3800	8033.0000
7521	7522	108	0.3800	8033.0000
7522	7523	109	0.3800	8033.0000
7523	7524	110	0.3800	8033.0000
7524	7525	111	0.3800	8033.0000
7525	7526	112	0.3800	8033.0000
7526	7527	113	0.3800	8033.0000
7527	7528	114	0.3800	8033.0000
7528	7529	115	0.3800	8033.0000
7529	7530	116	0.3800	8033.0000
7531	7532	117	0.3800	8033.0000
7532	7533	118	0.3800	8033.0000
7533	7534	119	0.3800	8033.0000
7534	7535	120	0.3800	8033.0000
7535	7536	121	0.3800	8033.0000
7536	7537	122	0.3800	8033.0000
7537	7538	123	0.3800	8033.0000
7538	7539	124	0.3800	8033.0000
7539	7540	125	0.3800	8033.0000
7541	7542	126	0.3800	8033.0000
7542	7543	127	0.3800	8033.0000
7543	7544	128	0.3800	8033.0000
7544	7545	129	0.3800	8033.0000
7545	7546	130	0.3800	8033.0000
7546	7547	131	0.3800	8033.0000
7547	7548	132	0.3800	8033.0000
7548	7549	133	0.3800	8033.0000
7549	7550	134	0.3800	8033.0000
7551	7552	135	0.3800	8033.0000
7552	7553	136	0.3800	8033.0000
7553	7554	137	0.3800	8033.0000
7554	7555	138	0.3800	8033.0000
7555	7556	139	0.3800	8033.0000
7556	7557	140	0.3800	8033.0000
7557	7558	141	0.3800	8033.0000
7558	7559	142	0.3800	8033.0000
7559	7560	143	0.3800	8033.0000
7561	7562	144	0.3800	8033.0000
7562	7563	145	0.3800	8033.0000
7563	7564	146	0.3800	8033.0000
7564	7565	147	0.3800	8033.0000
7565	7566	148	0.3800	8033.0000
7566	7567	149	0.3800	8033.0000
7567	7568	150	0.3800	8033.0000
7568	7569	151	0.3800	8033.0000
7569	7570	152	0.3800	8033.0000
7571	7572	153	0.3800	8033.0000
7572	7573	154	0.3800	8033.0000
7573	7574	155	0.3800	8033.0000
7574	7575	156	0.3800	8033.0000
7575	7576	157	0.3800	8033.0000
7576	7577	158	0.3800	8033.0000
7577	7578	159	0.3800	8033.0000
7578	7579	160	0.3800	8033.0000
7579	7580	161	0.3800	8033.0000
7581	7582	162	0.3800	8033.0000
7582	7583	163	0.3800	8033.0000
7583	7584	164	0.3800	8033.0000
7584	7585	165	0.3800	8033.0000
7585	7586	166	0.3800	8033.0000
7586	7587	167	0.3800	8033.0000
7587	7588	168	0.3800	8033.0000
7588	7589	169	0.3800	8033.0000
7589	7590	170	0.3800	8033.0000
7591	7592	171	0.3800	8033.0000
7592	7593	172	0.3800	8033.0000
7593	7594	173	0.3800	8033.0000
7594	7595	174	0.3800	8033.0000
7595	7596	175	0.3800	8033.0000
7596	7597	176	0.3800	8033.0000
7597	7598	177	0.3800	8033.0000
7598	7599	178	0.3800	8033.0000
7599	7600	179	0.3800	8033.0000
7601	7602	180	0.3800	8033.0000
7602	7603	181	0.3800	8033.0000
7603	7604	182	0.3800	8033.0000
7604	7605	183	0.3800	8033.0000
7605	7606	184	0.3800	8033.0000
7606	7607	185	0.3800	8033.0000
7607	7608	186	0.3800	8033.0000
7608	7609	187	0.3800	8033.0000
7609	7610	188	0.3800	8033.0000
7611	7612	189	0.3800	8033.0000
7612	7613	190	0.3800	8033.0000
7613	7614	191	0.3800	8033.0000
7614	7615	192	0.3800	8033.0000
7615	7616	193	0.3800	8033.0000
7616	7617	194	0.3800	8033.0000
7617	7618	195	0.3800	8033.0000
7618	7619	196	0.3800	8033.0000
7619	7620	197	0.3800	8033.0000
7621	7622	198	0.3800	8033.0000
7622	7623	199	0.3800	8033.0000
7623	7624	200	0.3800	8033.0000
7624	7625	201	0.3800	8033.0000
7625	7626	202	0.3800	8033.0000
7626	7627	203	0.3800	8033.0000
7627	7628	204	0.3800	8033.0000
7628	7629	205	0.3800	8033.0000
7629	7630	206	0.3800	8033.0000
7631	7632	207	0.3800	8033.0000
7632	7633	208	0.3800	8033.0000
7633	7634	209	0.3800	8033.0000
7634	7635	210	0.3800	8033.0000
7635	7636	211	0.3800	8033.0000
7636	7637	212	0.3800	8033.0000
7637	7638	213	0.3800	8033.0000
7638	7639	214	0.3800	8033.0000
7639	7640	215	0.3800	8033.0000
7641	7642	216	0.3800	8033.0000
7642	7643	217	0.3800	8033.0000
7643	7644	218	0.3800	8033.0000
7644	7645	219	0.3800	8033.0000
7645	7646	220	0.3800	8033.0000
7646	7647	221	0.3800	8033.0000
7647	7648	222	0.3800	8033.0000
7648	7649	223	0.3800	8033.0000
7649	7650	224	0.3800	8033.0000
7651	7652	225	0.3800	8033.0000
7652	7653	226	0.3800	8033.0000
7653	7654	227	0.3800	8033.0000
7654	7655	228	0.3800	8033.0000
7655	7656	229	0.3800	8033.0000
7656	7657	230	0.3800	8033.0000
7657	7658	231	0.3800	8033.0000
7658	7659	232	0.3800	8033.0000
7659	7660	233	0.3800	8033.0000
7661	7662	234	0.3800	8033.0000
7662	7663	235	0.3800	8033.0000
7663	7664	236	0.3800	8033.0000
7664	7665	237	0.3800	8033.0000
7665	7666	238	0.3800	8033.0000
7666	7667	239	0.3800	8033.0000
7667	7668	240	0.3800	8033.0000
7668	7669	241	0.3800	8033.0000
7669	7670	242	0.3800	8033.0000
7671	7672	243	0.3800	8033.0000
7672	7673	244	0.3800	8033.0000
7673	7674	245	0.3800	8033.0000
7674	7675	246	0.3800	8033.0000
7675	7676	247	0.3800	8033.0000
7676	7677	248	0.3800	8033.0000
7677	7678	249	0.3800	8033.0000
7678	7679	250	0.3800	8033.0000
7679	7680	251	0.3800	8033.0000
7681	7682	252	0.3800	8033.0000
7682	7683	253	0.3800	8033.0000
7683	7684	254	0.3800	8033.0000
7684	7685	255	0.3800	8033.0000
7685	7686	256	0.3800	8033.0000
7686	7687	257	0.3800	8033.0000
7687	7688	258	0.3800	8033.0000
7688	7689	259	0.3800	8033.0000
7689	7690	260	0.3800	8033.0000
7691	7692	261	0.3800	8033.0000
7692	7693	262	0.3800	8033.0000
7693	7694	263	0.3800	8033.0000
7694	7695	264	0.3800	8033.0000
7695	7696	265	0.3800	8033.0000
7696	7697	266	0.3800	8033.0000
7697	7698	267	0.3800	8033.0000
7698	7699	268	0.3800	8033.0000
7699	7700	269	0.3800	8033.0000
7701	7702	270	0.3800	8033.0000
7702	7703	271	0.3800	8033.0000
7703	7704	272	0.3800	8033.0000
7704	7705	273	0.3800	8033.0000
7705	7706	274	0.3800	8033.0000
7706	7707	275	0.3800	8033.0000
7707	7708	276	0.3800	8033.0000
7708	7709	277	0.3800	8033.0000
7709	7710	278	0.3800	8033.0000
7711	7712	279	0.3800	8033.0000
7712	7713	280	0.3800	8033.0000
7713	7714	281	0.3800	8033.0000
7714	7715	282	0.3800	8033.0000
7715	7716	283	0.3800	8033.0000
7716	7717	284	0.3800	8033.0000
7717	7718	285	0.3800	8033.0000
7718	7719	286	0.3800	8033.0000
7719	7720	287	0.3800	8033.0000
7721	7722	288	0.3800	8033.0000
7722	7723	289	0.3800	8033.0000
7723	7724	290	0.3800	8033.0000
7724	7725	291	0.3800	8033.0000
7725	7726	292	0.3800	8033.0000
7726	7727	293	0.3800	8033.0000
7727	7728	294	0.3800	8033.0000
7728	7729	295	0.3800	8033.0000
7729	7730	296	0.3800	8033.0000
7731	7732	297	0.3800	8033.0000
7732	7733	298	0.3800	8033.0000
7733	7734	299	0.3800	8033.0000
7734	7735	300	0.3800	8033.0000
7735	7736	301	0.3800	8033.0000
7736	7737	302	0.3800	8033.0000
7737	7738	303	0.3800	8033.0000
7738	7739	304	0.3800	8033.0000
7739	7740	305	0.3800	8033.0000
7741	7742	306	0.3800	8033.0000
7742	7743	307	0.3800	8033.0000
7743	7744	308	0.3800	8033.0000
7744	7745	309	0.3800	8033.0000
7745	7746	310	0.3800	8033.0000
7746	7747	311	0.3800	8033.0000
7747	7748	312	0.3800	8033.0000
7748	7749	313	0.3800	8033.0000
7749	7750	314	0.3800	8033.0000
7751	7752	315	0.3800	8033.0000
7752	7753	316	0.3800	8033.0000
7753	7754	317	0.3800	8033.0000
7754	7755	318	0.3800	8033.0000
7755	7756	319	0.3800	8033.0000
7756	7757	320	0.3800	8033.0000
7757	7758	321	0.3800	8033.0000
7758	7759	322	0.3800	8033.0000
7759	7760	323	0.3800	8033.0000
7761	7762	324	0.3800	8033.0000
7762	7763	325	0.3800	8033.0000
7763	7764	326	0.3800	8033.0000
7764	7765	327	0.3800	8033.0000
7765	7766	328	0.3800	8033.0000
7766	7767	329	0.3800	8033.0000
7767	7768	330	0.3800	8033.0000
7768	7769	331	0.3800	8033.0000
7769	7770	332	0.3800	8033.0000
7771	7772	333	0.3800	8033.0000
7772	7773	334	0.3800	8033.0000
7773	7774	335	0.3800	8033.0000
7774	7775	336	0.3800	8033.0000
7775	7776	337	0.3800	8033.0000
7776	7777	338	0.3800	8033.0000
7777	7778	339	0.3800	8033.0000
7778	7779	340	0.3800	8033.0000
7779	7780	341	0.3800	8033.0000
7781	7782	342	0.3800	8033.0000
7782	7783	343	0.3800	8033.0000
7783	7784	344	0.3800	8033.0000
7784	7785	345	0.3800	8033.0000
7785	7786	346	0.3800	8033.0000
7786	7787	347	0.3800	8033.0000
7787	7788	348	0.3800	8033.0000
7788	7789	349	0.3800	8033.0000
7789	7790	350	0.3800	8033.0000
7791	7792	351	0.3800	8033.0000
7792	7793	352	0.3800	8033.0000
7793	7794	353	0.3800	8033.0000
7794	7795	354	0.3800	8033.0000
7795	7796	355	0.3800	8033.0000
7796	7797	356	0.3800	8033.0000
7797	7798	357	0.3800	8033.0000
7798	7799	358	0.3800	8033.0000
7799	7800	359	0.3800	8033.0000
7801	7802	360	0.3800	8033.0000
7802	7803	361	0.3800	8033.0000
7803	7804	362	0.3800	8033.0000
7804	7805	363	0.3800	8033.0000
7805	7806	364	0.3800	8033.0000
7806	7807	365	0.3800	8033.0000
7807	7808	366	0.3800	8033.0000
7808	7809	367	0.3800	8033.0000
7809	7810	368	0.3800	8033.0000
7811	7812	369	0.3800	8033.0000
7812	7813	370	0.3800	8033.0000
7813	7814	371	0.3800	8033.0000
7814	7815	372	0.3800	8033.0000
7815	7816	373	0.3800	8033.0000
7816	7817	374	0.3800	8033.0000
7817	7818	375	0.3800	8033.0000
7818	7819	376	0.3800	8033.0000
7819	7820	377	0.3800	8033.0000
7821	7822	378	0.3800	8033.0000
7822	7823	379	0.3800	8033.0000
7823	7824	380	0.3800	8033.0000
7824	7825	381	0.3800	8033.0000
7825	7826	382	0.3800	8033.0000
7826	7827	383	0.3800	8033.0000
7827	7828	384	0.3800	8033.0000
7828	7829	385	0.3800	8033.0000
7829	7830	386	0.3800	8033.0000
7831	7832	387	0.3800	8033.0000
7832	7833	388	0.3800	8033.0000
7833	7834	389	0.3800	8033.0000
7834	7835	390	0.3800	8033.0000
7835	7836	391	0.3800	8033.0000
7836	7837	392	0.3800	8033.0000
7837	7838	393	0.3800	8033.0000
7838	7839	394	0.3800	8033.0000
7839	7840	395	0.3800	8033.0000
7841	7842	396	0.3800	8033.0000
7842	7843	397	0.3800	8033.0000
7843	7844	398	0.3800	8033.0000
7844	7845	399	0.3800	8033.0000
7845	7846	400	0.3800	8033.0000
7846	7847	401	0.3800	8033.0000
7847	7848	402	0.3800	8033.0000
7848	7849	403	0.3800	8033.0000
7849	7850	404	0.3800	8033.0000
7851	7852	405	0.3800	8033.0000
7852	7853	406	0.3800	8033.0000
7853	7854	407	0.3800	8033.0000
7854	7855	408	0.3800	8033.0000
7855	7856	409	0.3800	8033.0000
7856	7857	410	0.3800	8033.0000
7857	7858	411	0.3800	8033.0000
7858	7859	412	0.3800	8033.0000
7859	7860	413	0.3800	8033.0000
7861	7862	414	0.3800	8033.0000
7862	7863	415	0.3800	8033.0000
7863	7864	416	0.3800	8033.0000
7864	7865	417	0.3800	8033.0000
7865	7866	418	0.3800	8033.0000
7866	7867	419	0.3800	8033.0000
7867	7868	420	0.3800	8033.0000
7868	7869	421	0.3800	8033.0000
7869	7870	422	0.3800	8033.0000
7871	7872	423	0.3800	8033.0000
7872	7873	424	0.3800	8033.0000
7873	7874	425	0.3800	8033.0000
7874	7875	426	0.3800	8033.0000
7875	7876	427	0.3800	8033.0000
7876	7877	428	0.3800	8033.0000
7877	7878	429	0.3800	8033.0000
7878	7879	430	0.3800	8033.0000
7879	7880	431	0.3800	8033.0000
7881	7882	432	0.3800	8033.0000
7882	7883	433	0.3800	8033.0000
7883	7884	434	0.3800	8033.0000
7884	7885	435	0.3800	8033.0000
7885	7886	436	0.3800	8033.0000
7886	7887	437	0.3800	8033.0000
7887	7888	438	0.3800	8033.0000
7888	7889	439	0.3800	8033.0000
7889	7890	440	0.3800	8033.0000
7891	7892	441	0.3800	8033.0000
7892	7893	442	0.3800	8033.0000
7893	7894	443	0.3800	8033.0000
7894	7895	444	0.3800	8033.0000
7895	7896	445	0.3800	8033.0000
7896	7897	446	0.3800	8033.0000
7897	7898	447	0.3800	8033.0000
7898	7899	448	0.3800	8033.0000
7899	7900	449	0.3800	8033.0000
7901	7902	450	0.3800	8033.0000
7902	7903	451	0.3800	8033.0000
7903	7904	452	0.3800	8033.0000
7904	7905	453	0.3800	8033.0000
7905	7906	454	0.3800	8033.0000
7906	7907	455	0.3800	8033.0000
7907	7908	456	0.3800	8033.0000
7908	7909	457	0.3800	8033.0000
7909	7910	458	0.3800	8033.0000
7911	7912	459	0.3800	8033.0000
7912	7913	460	0.3800	8033.0000
7913	7914	461	0.3800	8033.0000
7914	7915	462	0.3800	8033.0000
7915	7916	463	0.3800	8033.0000
7916	7917	464	0.3800	8033.0000
7917	7918	465	0.3800	8033.0000
7918	7919	466	0.3800	8033.0000
7919	7920	467	0.3800	8033.0000
7921	7922	468	0.3800	8033.0000
7922	7923	469	0.3800	8033.0000
7923	7924	470	0.3800	8033.0000
7924	7925	471	0.3800	8033.0000
7925	7926	472	0.3800	8033.0000
7926	7927	473	0.3800	8033.0000
7927	7928	474	0.3800	8033.0000
7928	7929	475	0.3800	8033.0000
7929	7930	476	0.3800	8033.0000
7931	7932	477	0.3800	8033.0000
7932	7933	478	0.3800	8033.0000
7933	7934	479	0.3800	8033.0000
7934	7935	480	0.3800	8033.0000
7935	7936	481	0.3800	8033.0000
7936	7937	482	0.3800	8033.0000
7937	7938	483	0.3800	8033.0000
7938	7939	484	0.3800	8033.0000
7939	7940	485	0.3800	8033.0000
7941	7942	486	0.3800	8033.0000
7942	7943	487	0.3800	8033.0000
7943	7944	488	0.3800	8033.0000
7944	7945	489	0.3800	8033.0000
7945	7946	490	0.3800	8033.0000
7946	7947	491	0.3800	8033.0000
7947	7948	492	0.3800	8033.0000
7948	7949	493	0.3800	8033.0000
7949	7950	494	0.3800	8033.0000
7951	7952	495	0.3800	8033.0000
7952	7953	496	0.3800	8033.0000
7953	7954	497	0.3800	8033.0000
7954	7955	498	0.3800	8033.0000
7955	7956	499	0.3800	8033.0000
7956	7957	500	0.3800	8033.0000
7957	7958	501	0.3800	8033.0000
7958	7959	502	0.3800	8033.0000
7959	7960	503	0.3800	8033.0000
7961	7962	504	0.3800	8033.0000
7962	7963	505	0.3800	8033.0000
7963	7964	506	0.3800	8033.0000
7964	7965	507	0.3800	8033.0000
7965	7966	508	0.3800	8033.0000
7966	7967	509	0.3800	8033.0000
7967	7968	510	0.3800	8033.0000
7968	7969	511	0.3800	8033.0000
7969	7970	512	0.3800	8033.0000
7971	7972	513	0.3800	8033.0000
7972	7973	514	0.3800	8033.0000
7973	7974	515	0.3800	8033.0000
7974	7975	516	0.3800	8033.0000
7975	7976	517	0.3800	8033.0000
7976	7977	518	0.3800	8033.0000
7977	7978	519	0.3800	8033.0000
7978	7979	520	0.3800	8033.0000
7979	7980	521	0.3800	8033.0000
7981	7982	522	0.3800	8033.0000
7982	7983	523	0.3800	8033.0000
7983	7984	524	0.3800	8033.0000
7984	7985	525	0.3800	8033.0000
7985	7986	526	0.3800	8033.0000
7986	7987	527	0.3800	8033.0000
7987	7988	528	0.3800	8033.0000
7988	7989	529	0.3800	8033.0000
7989	7990	530	0.3800	8033.0000
7991	7992	531	0.3800	8033.0000
7992	7993	532	0.3800	8033.0000
7993	7994	533	0.3800	8033.0000
7994	7995	534	0.3800	8033.0000
7995	7996	535	0.3800	8033.0000
7996	7997	536	0.3800	8033.0000
7997	7998	537	0.3800	8033.0000
7998	7999	538	0.3800	8033.0000
7999	8000	539	0.3800	8033.0000
8001	8002	540	0.3800	8033.0000
8002	8003	541	0.3800	8033.0000
8003	8004	542	0.3800	8033.0000
8004	8005	543	0.3800	8033.0000
8005	8006	544	0.3800	8033.0000
8006	8007	545	0.3800	8033.0000
8007	8008	546	0.3800	8033.0000
8008	8009	547	0.3800	8033.0000
8009	8010	548	0.3800	8033.0000
8011	8012	549	0.3800	8033.0000
8012	8013	550	0.3800	8033.0000
8013	8014	551	0.3800	8033.0000
8014	8015	552	0.3800	8033.0000
8015	8016	553	0.3800	8033.0000
8016	8017	554	0.3800	8033.0000
8017	8018	555	0.3800	8033.0000
8018	8019	556	0.3800	8033.0000
8019	8020	557	0.3800	8033.0000
8021	8022	558	0.3800	8033.0000
8022	8023	559	0.3800	8033.0000
8023	8024	560	0.3800	8033.0000
8024	8025	561	0.3800	8033.0000
8025	8026	562	0.3800	8033.0000
8026	8027	563	0.3800	8033.0000
8027	8028	564	0.3800	8033.0000
8028	8029	565	0.3800	8033.0000
8029	8030	566	0.3800	8033.0000
8031	8032	567	0.3800	8033.0000
8032	8033	568	0.3800	8033.0000
8033	8034	569	0.3800	8033.0000
8034	8035	570	0.3800	8033.0000
8035	8036	571	0.3800	8033.0000
8036	8037	572	0.3800	8033.0000
8037	8038	573	0.3800	8033.0000
8038	8039	574	0.3800	8033.0000
8039	8040	575	0.3800	8033.0000
8041	8042	576	0.3800	8033.0000
8042	8043	577	0.3800	8033.0000
8043	8044	578	0.3800	8033.0000
8044	8045	579	0.3800	8033.0000
8045	8046	580	0.3800	8033.0000
8046	8047	581	0.3800	8033.0000
8047	8048	582	0.3800	8033.0000
8048	8049	583	0.3800	8033.0000
8049	8050	584	0.3800	8033.0000
8051	8052	585	0.3800	8033.0000
8052	8053	586	0.3800	8033.0000
8053	8054	587	0.3800	8033.0000
8054	8055	588	0.3800	8033.0000
8055	8056	589	0.3800	8033.0000
8056	8057	590	0.3800	8033.0000
8057	8058	591	0.3800	8033.0000
8058	8059	592	0.3800	8033.0000
8059	8060	593	0.3800	8033.0000
8061	8062	594	0.3800	8033.0000
8062	8063	595	0.3800	8033.0000
8063	8064	596	0.3800	8033.0000
8064	8065	597	0.3800	8033.0000
8065	8066	598	0.3800	8033.0000
8066	8067	599	0.3800	8033.0000
8067	8068	600	0.3800	8033.0000
8068	8069	601	0.3800	8033.0000
8069	8070	602	0.3800	8033.0000
8071	8072	603	0.3800	8033.0000
8072	8073	604	0.3800	8033.0000
8073	8074	605	0.3800	8033.0000
8074	8075	606	0.3800	8033.0000
8075	8076	607	0.3800	8033.0000
8076	8077	608	0.3800	8033.0000
8077	8078	609	0.3800	8033.0000
8078	8079	610	0.3800	8033.0000
8079	8080	611	0.3800	8033.0000
8081	8082	612	0.3800	8033.0000
8082	8083	613	0.3800	8033.0000
8083	8084	614	0.3800	8033.0000
8084	8085	615	0.3800	8033.0000
8085	8086	616	0.3800	8033.0000
8086	8087	617	0.3800	8033.0000
8087	8088	618	0.3800	8033.0000
8088	8089	619	0.3800	8033.0000
8089	8090	620	0.3800	8033.0000
8091	8092	621	0.3800	8033.0000
8092	8093	622	0.3800	8033.0000
8093	8094	623	0.3800	8033.0000
8094	8095	624	0.3800	8033.0000
8095	8096	625	0.3800	8033.0000
8096	8097	626	0.3800	8033.0000
8097	8098	627	0.3800	8033.0000
8098	8099	628	0.3800	8033.0000
8099	8100	629	0.3800	8033.0000
8101	8102	630	0.3800	8033.0000
8102	8103	631	0.3800	8033.0000
8103	8104	632	0.3800	8033.0000
8104	8105	633	0.3800	8033.0000
8105	8106	634	0.3800	8033.0000
8106	8107	635	0.3800	8033.0000
8107	8108	636	0.3800	8033.0000
8108	8109	637	0.3800	8033.0000
8109	8110	638	0.3800	8033.0000
8111	8112	639	0.3800	8033.0000
8112	8113	640	0.3800	8033.0000
8113	8114	641	0.3800	8033.0000
8114	8115	642	0.3800	8033.0000
8115	8116	643	0.3800	8033.0000
8116	8117	644	0.3800	8033.0000
8117	8118	645	0.3800	8033.0000
8118	8119	646	0.3800	8033.0000
